Incident energy [eV];Computed function [b]
1.000000E-05;9.178700E-20
1.030046E-05;9.045200E-20
1.060994E-05;8.913700E-20
1.092873E-05;8.784200E-20
1.125709E-05;8.656500E-20
1.159532E-05;8.530800E-20
1.194371E-05;8.406900E-20
1.230257E-05;8.284900E-20
1.267221E-05;8.164700E-20
1.305296E-05;8.046300E-20
1.344515E-05;7.929600E-20
1.384912E-05;7.814700E-20
1.426523E-05;7.701500E-20
1.469384E-05;7.590000E-20
1.513533E-05;7.480100E-20
1.559008E-05;7.371900E-20
1.605850E-05;7.265300E-20
1.654099E-05;7.160300E-20
1.703798E-05;7.056900E-20
1.754990E-05;6.955000E-20
1.807720E-05;6.854600E-20
1.862034E-05;6.755700E-20
1.917981E-05;6.658300E-20
1.975608E-05;6.562400E-20
2.034967E-05;6.467900E-20
2.096109E-05;6.374800E-20
2.159089E-05;6.283100E-20
2.223960E-05;6.192800E-20
2.290781E-05;6.103900E-20
2.359609E-05;6.016300E-20
2.430506E-05;5.930000E-20
2.503533E-05;5.845000E-20
2.578753E-05;5.761200E-20
2.656234E-05;5.678800E-20
2.736043E-05;5.597600E-20
2.818250E-05;5.517600E-20
2.902926E-05;5.438800E-20
2.990147E-05;5.361200E-20
3.079989E-05;5.284800E-20
3.172530E-05;5.209500E-20
3.267851E-05;5.135400E-20
3.366036E-05;5.062400E-20
3.467172E-05;4.990600E-20
3.571346E-05;4.919800E-20
3.678650E-05;4.850100E-20
3.789178E-05;4.781400E-20
3.903027E-05;4.713800E-20
4.020297E-05;4.647200E-20
4.141090E-05;4.581700E-20
4.265513E-05;4.517100E-20
4.393674E-05;4.453600E-20
4.525685E-05;4.391000E-20
4.661664E-05;4.329300E-20
4.801727E-05;4.268700E-20
4.945999E-05;4.208900E-20
5.094606E-05;4.150100E-20
5.247678E-05;4.092200E-20
5.405349E-05;4.035100E-20
5.567757E-05;3.979000E-20
5.735045E-05;3.923700E-20
5.907359E-05;3.869300E-20
6.084851E-05;3.815700E-20
6.267675E-05;3.763000E-20
6.455993E-05;3.711100E-20
6.649969E-05;3.660000E-20
6.849773E-05;3.609700E-20
7.055580E-05;3.560200E-20
7.267571E-05;3.511500E-20
7.485931E-05;3.463500E-20
7.710852E-05;3.416300E-20
7.942531E-05;3.369800E-20
8.181171E-05;3.324100E-20
8.426982E-05;3.279100E-20
8.680178E-05;3.234800E-20
8.940981E-05;3.191200E-20
9.209620E-05;3.148300E-20
9.486331E-05;3.106100E-20
9.771356E-05;3.064600E-20
1.006494E-04;3.023800E-20
1.036735E-04;2.983600E-20
1.067885E-04;2.944000E-20
1.104632E-04;2.899600E-20
1.142644E-04;2.856000E-20
1.181964E-04;2.813300E-20
1.222636E-04;2.771300E-20
1.264709E-04;2.730100E-20
1.308229E-04;2.689700E-20
1.353247E-04;2.650000E-20
1.399813E-04;2.611100E-20
1.447983E-04;2.573000E-20
1.497809E-04;2.535500E-20
1.549351E-04;2.498800E-20
1.602666E-04;2.462800E-20
1.657815E-04;2.427500E-20
1.714863E-04;2.392900E-20
1.773873E-04;2.358900E-20
1.834914E-04;2.325600E-20
1.898056E-04;2.293000E-20
1.963370E-04;2.261000E-20
2.030932E-04;2.229600E-20
2.100819E-04;2.198900E-20
2.173111E-04;2.168800E-20
2.247890E-04;2.139300E-20
2.325243E-04;2.110400E-20
2.405257E-04;2.082000E-20
2.488025E-04;2.054300E-20
2.573641E-04;2.027100E-20
2.662203E-04;2.000500E-20
2.753812E-04;1.974500E-20
2.848574E-04;1.948900E-20
2.946597E-04;1.924000E-20
3.047993E-04;1.899500E-20
3.152878E-04;1.875600E-20
3.261372E-04;1.852200E-20
3.373600E-04;1.829300E-20
3.489689E-04;1.806900E-20
3.609774E-04;1.784900E-20
3.733990E-04;1.763500E-20
3.862481E-04;1.742500E-20
3.995394E-04;1.722000E-20
4.132880E-04;1.702000E-20
4.275097E-04;1.682400E-20
4.422208E-04;1.663300E-20
4.574382E-04;1.644600E-20
4.731792E-04;1.626300E-20
4.915362E-04;1.606300E-20
5.106053E-04;1.586800E-20
5.304143E-04;1.567800E-20
5.509917E-04;1.549300E-20
5.723674E-04;1.531400E-20
5.945724E-04;1.513900E-20
6.176389E-04;1.496900E-20
6.416002E-04;1.480400E-20
6.664911E-04;1.464300E-20
6.923476E-04;1.448700E-20
7.192072E-04;1.433600E-20
7.471089E-04;1.418800E-20
7.760930E-04;1.404600E-20
8.062015E-04;1.390700E-20
8.374782E-04;1.377200E-20
8.699681E-04;1.364200E-20
9.075485E-04;1.350200E-20
9.467523E-04;1.336600E-20
9.876496E-04;1.323500E-20
1.030314E-03;1.310900E-20
1.074820E-03;1.298700E-20
1.121250E-03;1.286900E-20
1.169685E-03;1.275500E-20
1.220212E-03;1.264600E-20
1.278317E-03;1.253000E-20
1.339189E-03;1.241900E-20
1.402959E-03;1.231200E-20
1.469766E-03;1.221000E-20
1.539754E-03;1.211200E-20
1.613074E-03;1.201800E-20
1.689887E-03;1.192800E-20
1.777859E-03;1.183400E-20
1.870412E-03;1.174500E-20
1.967782E-03;1.166000E-20
2.070221E-03;1.157800E-20
2.187224E-03;1.149500E-20
2.310839E-03;1.141500E-20
2.441441E-03;1.134000E-20
2.590355E-03;1.126300E-20
2.748352E-03;1.119100E-20
2.915986E-03;1.112300E-20
3.106957E-03;1.105400E-20
3.310435E-03;1.098900E-20
3.542187E-03;1.092400E-20
3.790163E-03;1.086400E-20
4.072686E-03;1.080400E-20
4.376269E-03;1.074800E-20
4.722410E-03;1.069300E-20
5.095930E-03;1.064300E-20
5.522297E-03;1.059300E-20
6.009700E-03;1.054500E-20
6.567839E-03;1.049900E-20
7.208233E-03;1.045400E-20
7.944595E-03;1.041200E-20
8.793290E-03;1.037200E-20
9.773895E-03;1.033500E-20
1.095613E-02;1.029900E-20
1.233342E-02;1.026600E-20
1.400177E-02;1.023400E-20
1.603082E-02;1.020400E-20
1.850981E-02;1.017700E-20
2.164502E-02;1.015100E-20
2.520446E-02;1.013000E-20
2.530000E-02;1.012900E-20
3.034565E-02;1.010800E-20
3.717541E-02;1.008800E-20
4.651556E-02;1.007000E-20
5.995112E-02;1.005500E-20
7.992627E-02;1.004100E-20
1.121041E-01;1.002900E-20
1.682442E-01;1.001900E-20
2.806564E-01;1.001200E-20
5.591766E-01;1.000600E-20
1.620725E+00;1.000200E-20
9.955181E+04;1.000000E-20
1.000000E+05;4.165800E-20
1.014108E+05;9.790000E-18
1.233856E+05;1.621200E-16
1.244543E+05;1.167300E-15
1.262101E+05;3.440700E-13
1.557251E+05;6.124900E-12
1.577682E+05;4.448600E-11
1.577769E+05;8.000300E-11
1.577791E+05;9.082100E-11
1.577812E+05;1.022900E-10
1.577840E+05;1.174200E-10
1.577872E+05;1.365500E-10
1.577910E+05;1.598800E-10
1.577965E+05;1.944500E-10
1.578084E+05;2.727600E-10
1.931000E+05;2.338130E-07
2.000000E+05;2.513510E-07
3.000000E+05;3.310930E-06
4.000000E+05;2.188480E-05
5.000000E+05;9.368050E-05
5.998820E+05;2.968290E-04
6.998308E+05;7.573050E-04
8.000000E+05;1.645240E-03
9.000000E+05;3.154993E-03
1.000000E+06;5.490881E-03
1.200000E+06;1.336100E-02
1.400000E+06;2.626034E-02
1.600000E+06;4.429670E-02
1.800000E+06;6.668551E-02
2.000000E+06;9.212368E-02
2.215519E+06;1.215633E-01
2.416930E+06;1.503020E-01
2.800000E+06;2.069611E-01
3.200000E+06;2.340094E-01
3.400000E+06;2.505795E-01
3.600000E+06;2.710304E-01
3.826806E+06;2.892498E-01
4.000000E+06;3.044435E-01
4.229627E+06;3.120693E-01
4.400000E+06;3.166096E-01
4.600000E+06;3.321728E-01
4.902057E+06;3.437366E-01
5.200000E+06;3.533986E-01
5.600000E+06;3.618503E-01
5.840914E+06;3.688997E-01
6.000000E+06;3.721525E-01
6.243735E+06;3.742712E-01
6.490292E+06;3.778308E-01
6.693114E+06;3.805904E-01
6.800000E+06;3.824312E-01
7.200000E+06;3.808714E-01
7.552200E+06;3.830917E-01
7.800000E+06;3.843880E-01
8.056433E+06;3.795226E-01
8.500000E+06;3.729473E-01
9.000000E+06;3.577051E-01
9.500000E+06;3.319084E-01
1.000000E+07;2.997881E-01
1.014108E+07;2.910604E-01
1.028415E+07;2.822096E-01
1.042925E+07;2.732340E-01
1.050000E+07;2.688570E-01
1.064814E+07;2.589535E-01
1.079836E+07;2.489103E-01
1.095071E+07;2.387254E-01
1.100000E+07;2.354300E-01
1.115519E+07;2.259708E-01
1.131257E+07;2.163782E-01
1.147217E+07;2.066503E-01
1.150000E+07;2.049540E-01
1.166224E+07;1.962340E-01
1.182678E+07;1.873910E-01
1.199363E+07;1.784232E-01
1.200000E+07;1.780810E-01
1.216930E+07;1.705367E-01
1.234099E+07;1.628860E-01
1.250000E+07;1.558000E-01
1.267635E+07;1.485329E-01
1.285519E+07;1.411632E-01
1.300000E+07;1.351960E-01
1.318341E+07;1.287672E-01
1.336940E+07;1.222478E-01
1.350000E+07;1.176700E-01
1.369046E+07;1.120114E-01
1.388361E+07;1.062730E-01
1.400000E+07;1.028150E-01
1.419751E+07;9.765299E-02
1.439782E+07;9.241815E-02
1.450000E+07;8.974760E-02
1.470457E+07;8.555770E-02
1.491202E+07;8.130869E-02
1.500000E+07;7.950680E-02
1.521162E+07;7.624057E-02
1.542623E+07;7.292826E-02
1.564387E+07;6.956921E-02
1.586457E+07;6.616278E-02
1.600000E+07;6.407260E-02
1.622573E+07;6.162926E-02
1.645465E+07;5.915146E-02
1.668679E+07;5.663869E-02
1.692221E+07;5.409047E-02
1.700000E+07;5.324850E-02
1.723984E+07;5.143896E-02
1.748306E+07;4.960389E-02
1.772972E+07;4.774293E-02
1.797985E+07;4.585572E-02
1.800000E+07;4.570370E-02
1.825395E+07;4.443770E-02
1.851148E+07;4.315383E-02
1.877264E+07;4.185185E-02
1.900000E+07;4.071840E-02
1.926806E+07;3.959653E-02
1.953989E+07;3.845884E-02
1.981557E+07;3.730509E-02
2.000000E+07;3.653320E-02
2.028216E+07;3.562720E-02
2.056831E+07;3.470842E-02
2.085849E+07;3.377667E-02
2.100000E+07;3.332230E-02
2.129627E+07;3.261406E-02
2.159672E+07;3.189583E-02
2.190142E+07;3.116747E-02
2.200000E+07;3.093180E-02
2.231038E+07;3.054035E-02
2.262514E+07;3.014337E-02
2.294434E+07;2.974080E-02
2.300000E+07;2.967060E-02
2.332449E+07;2.904100E-02
2.365356E+07;2.840251E-02
2.398726E+07;2.775501E-02
2.400000E+07;2.773030E-02
2.433860E+07;2.713217E-02
2.468197E+07;2.652560E-02
2.500000E+07;2.596380E-02
2.535271E+07;2.548807E-02
2.571039E+07;2.500563E-02
2.600000E+07;2.461500E-02
2.636681E+07;2.372507E-02
2.673880E+07;2.282259E-02
2.700000E+07;2.218890E-02
2.738092E+07;2.174985E-02
2.776722E+07;2.130461E-02
2.800000E+07;2.103630E-02
2.839503E+07;2.075322E-02
2.879563E+07;2.046615E-02
2.900000E+07;2.031970E-02
2.940914E+07;1.987259E-02
2.982405E+07;1.941918E-02
3.000000E+07;1.940320E-02
3.042325E+07;1.910977E-02
3.085246E+07;1.881425E-02
3.128774E+07;1.851667E-02
3.172915E+07;1.821706E-02
3.200000E+07;1.803430E-02
3.217679E+07;1.783367E-02
3.263075E+07;1.732165E-02
3.309111E+07;1.680705E-02
3.355796E+07;1.628996E-02
3.400000E+07;1.580480E-02
3.403141E+07;1.577540E-02
3.451153E+07;1.532810E-02
3.499842E+07;1.487862E-02
3.549219E+07;1.442705E-02
3.599292E+07;1.397349E-02
3.600000E+07;1.396711E-02
3.650072E+07;1.358948E-02
3.701567E+07;1.320466E-02
3.753790E+07;1.281808E-02
3.800000E+07;1.247910E-02
3.806749E+07;1.243652E-02
3.860456E+07;1.209951E-02
3.914920E+07;1.176092E-02
3.970152E+07;1.142082E-02
4.000000E+07;1.123840E-02
4.026164E+07;1.107899E-02
4.082966E+07;1.073534E-02
4.140569E+07;1.039025E-02
4.198985E+07;1.004379E-02
4.200000E+07;1.003780E-02
4.258225E+07;9.738497E-03
4.318301E+07;9.432655E-03
4.379224E+07;9.125583E-03
4.400000E+07;9.021578E-03
4.441007E+07;8.805190E-03
4.503662E+07;8.477356E-03
4.567201E+07;8.148333E-03
4.600000E+07;7.979841E-03
4.631636E+07;7.858737E-03
4.696980E+07;7.610422E-03
4.763246E+07;7.361122E-03
4.800000E+07;7.223939E-03
4.830446E+07;7.099370E-03
4.898595E+07;6.822627E-03
4.967706E+07;6.544922E-03
5.000000E+07;6.416170E-03
5.037791E+07;6.294143E-03
5.108865E+07;6.066440E-03
5.180942E+07;5.837920E-03
5.200000E+07;5.777900E-03
5.254036E+07;5.618132E-03
5.328161E+07;5.400935E-03
5.400000E+07;5.192610E-03
5.403332E+07;5.185505E-03
5.479563E+07;5.023782E-03
5.556870E+07;4.861412E-03
5.600000E+07;4.771540E-03
5.635267E+07;4.688303E-03
5.714771E+07;4.502069E-03
5.795396E+07;4.315202E-03
5.800000E+07;4.304591E-03
5.877158E+07;4.139203E-03
5.960074E+07;3.963287E-03
6.000000E+07;3.879250E-03
6.044160E+07;3.813518E-03
6.129433E+07;3.687524E-03
6.215908E+07;3.561011E-03
6.303603E+07;3.434007E-03
6.392536E+07;3.306541E-03
6.482723E+07;3.178644E-03
6.500000E+07;3.154300E-03
6.574182E+07;3.076230E-03
6.666932E+07;2.979459E-03
6.760991E+07;2.882275E-03
6.856376E+07;2.784700E-03
6.953107E+07;2.686756E-03
7.000000E+07;2.639640E-03
7.051203E+07;2.588545E-03
7.150683E+07;2.490011E-03
7.251566E+07;2.391080E-03
7.353873E+07;2.291776E-03
7.457622E+07;2.192120E-03
7.500000E+07;2.151720E-03
7.562836E+07;2.107989E-03
7.669534E+07;2.034295E-03
7.777737E+07;1.960284E-03
7.887467E+07;1.885972E-03
7.998745E+07;1.811377E-03
8.000000E+07;1.810540E-03
8.111593E+07;1.749235E-03
8.226033E+07;1.686930E-03
8.342088E+07;1.624327E-03
8.459779E+07;1.561441E-03
8.579132E+07;1.498283E-03
8.700168E+07;1.434867E-03
8.822912E+07;1.371208E-03
8.947387E+07;1.307321E-03
9.000000E+07;1.280520E-03
9.073618E+07;1.255875E-03
9.201631E+07;1.213313E-03
9.331449E+07;1.170531E-03
9.463099E+07;1.127537E-03
9.596607E+07;1.084338E-03
9.731997E+07;1.040943E-03
9.869298E+07;9.973611E-04
1.000000E+08;9.562721E-04
1.000854E+08;9.543279E-04
1.014974E+08;9.223113E-04
1.029293E+08;8.901174E-04
1.043815E+08;8.577514E-04
1.058541E+08;8.252190E-04
1.073475E+08;7.925260E-04
1.088620E+08;7.596786E-04
1.100000E+08;7.352002E-04
1.103979E+08;7.287285E-04
1.119554E+08;7.035230E-04
1.135349E+08;6.781728E-04
1.151366E+08;6.526819E-04
1.167610E+08;6.270546E-04
1.184083E+08;6.012951E-04
1.200000E+08;5.766242E-04
1.200788E+08;5.757176E-04
1.217729E+08;5.563121E-04
1.234909E+08;5.367892E-04
1.252331E+08;5.171519E-04
1.270000E+08;4.974029E-04
1.287917E+08;4.775455E-04
1.300000E+08;4.642510E-04
1.306087E+08;4.618773E-04
1.324514E+08;4.547221E-04
1.343200E+08;4.475123E-04
1.362150E+08;4.402484E-04
1.381368E+08;4.329312E-04
1.400000E+08;4.258840E-04
1.400856E+08;4.254987E-04
1.420620E+08;4.166380E-04
1.440662E+08;4.077141E-04
1.460988E+08;3.987279E-04
1.481599E+08;3.896803E-04
1.500000E+08;3.816590E-04
1.502502E+08;3.807088E-04
1.523700E+08;3.726891E-04
1.545196E+08;3.646115E-04
1.566996E+08;3.564767E-04
1.589104E+08;3.482855E-04
1.600000E+08;3.442700E-04
1.611523E+08;3.404893E-04
1.634259E+08;3.330665E-04
1.657315E+08;3.255883E-04
1.680697E+08;3.180553E-04
1.704409E+08;3.104683E-04
1.728455E+08;3.028279E-04
1.752840E+08;2.951349E-04
1.777570E+08;2.873902E-04
1.800000E+08;2.804150E-04
1.802648E+08;2.796721E-04
1.828080E+08;2.725629E-04
1.853871E+08;2.654014E-04
1.880026E+08;2.581883E-04
1.906550E+08;2.509243E-04
1.933448E+08;2.436101E-04
1.960725E+08;2.362464E-04
1.988387E+08;2.288341E-04
2.000000E+08;2.257390E-04
