Incident energy;xsec
1.00000E-05;1.27340E-10
1.06250E-05;1.23660E-10
1.12500E-05;1.20290E-10
1.18750E-05;1.17190E-10
1.25000E-05;1.14330E-10
1.37500E-05;1.09220E-10
1.50000E-05;1.04760E-10
1.62500E-05;1.00840E-10
1.75000E-05;9.73580E-11
1.87500E-05;9.42340E-11
2.00000E-05;9.14130E-11
2.13544E-05;8.86460E-11
2.27088E-05;8.61360E-11
2.40633E-05;8.38460E-11
2.54177E-05;8.17460E-11
2.81265E-05;7.80240E-11
3.08353E-05;7.48170E-11
3.35442E-05;7.20200E-11
3.62530E-05;6.95540E-11
3.89618E-05;6.73600E-11
4.16707E-05;6.53920E-11
4.58353E-05;6.27300E-11
5.00000E-05;6.04240E-11
5.31250E-05;5.88850E-11
5.62500E-05;5.74840E-11
5.93750E-05;5.62020E-11
6.25000E-05;5.50240E-11
6.87500E-05;5.29310E-11
7.50000E-05;5.11270E-11
8.12500E-05;4.95530E-11
8.75000E-05;4.81680E-11
9.37500E-05;4.69380E-11
1.00000E-04;4.58390E-11
1.06250E-04;4.48510E-11
1.12500E-04;4.39580E-11
1.18750E-04;4.31470E-11
1.25000E-04;4.24070E-11
1.37500E-04;4.11080E-11
1.50000E-04;4.00060E-11
1.62500E-04;3.90620E-11
1.75000E-04;3.82450E-11
1.87500E-04;3.75340E-11
2.00000E-04;3.69120E-11
2.14051E-04;3.63010E-11
2.28102E-04;3.57690E-11
2.42153E-04;3.53040E-11
2.56204E-04;3.48960E-11
2.70255E-04;3.45380E-11
2.84306E-04;3.42220E-11
3.12408E-04;3.37010E-11
3.40510E-04;3.32970E-11
3.68612E-04;3.29860E-11
3.96714E-04;3.27520E-11
4.24816E-04;3.25810E-11
4.62408E-04;3.24300E-11
5.00000E-04;3.23540E-11
5.31250E-04;3.23370E-11
5.62500E-04;3.23560E-11
5.93750E-04;3.24040E-11
6.25000E-04;3.24780E-11
6.87500E-04;3.26900E-11
7.50000E-04;3.29720E-11
8.12500E-04;3.33090E-11
8.75000E-04;3.36900E-11
9.37500E-04;3.41050E-11
1.00000E-03;3.45500E-11
1.06250E-03;3.50200E-11
1.12500E-03;3.55090E-11
1.18750E-03;3.60160E-11
1.25000E-03;3.65380E-11
1.37500E-03;3.76190E-11
1.50000E-03;3.87380E-11
1.62500E-03;3.98880E-11
1.75000E-03;4.10620E-11
1.87500E-03;4.22550E-11
2.00000E-03;4.34640E-11
2.12832E-03;4.47190E-11
2.25663E-03;4.59850E-11
2.38495E-03;4.72610E-11
2.51326E-03;4.85450E-11
2.76990E-03;5.11320E-11
3.02653E-03;5.37400E-11
3.28316E-03;5.63650E-11
3.53979E-03;5.90020E-11
3.79642E-03;6.16490E-11
4.05305E-03;6.43040E-11
4.28979E-03;6.67590E-11
4.52653E-03;6.92200E-11
5.00000E-03;7.41510E-11
5.31250E-03;7.74130E-11
5.62500E-03;8.06800E-11
5.93750E-03;8.39500E-11
6.25000E-03;8.72230E-11
6.87500E-03;9.37770E-11
7.50000E-03;1.00340E-10
8.12500E-03;1.06910E-10
8.75000E-03;1.13480E-10
9.37500E-03;1.20060E-10
1.00000E-02;1.26640E-10
1.06250E-02;1.33220E-10
1.12500E-02;1.39810E-10
1.18750E-02;1.46400E-10
1.25000E-02;1.52990E-10
1.37500E-02;1.66170E-10
1.50000E-02;1.79350E-10
1.62500E-02;1.92540E-10
1.75000E-02;2.05730E-10
1.87500E-02;2.18930E-10
2.00000E-02;2.32120E-10
2.13250E-02;2.46110E-10
2.26500E-02;2.60100E-10
2.39750E-02;2.74090E-10
2.53000E-02;2.88080E-10
2.68438E-02;3.04380E-10
2.83875E-02;3.20690E-10
2.99313E-02;3.36990E-10
3.14750E-02;3.53290E-10
3.45625E-02;3.85900E-10
3.76500E-02;4.18520E-10
4.07375E-02;4.51130E-10
4.38250E-02;4.83740E-10
4.69125E-02;5.16360E-10
5.00000E-02;5.48970E-10
5.41816E-02;5.93140E-10
5.83633E-02;6.37320E-10
6.25449E-02;6.81490E-10
6.67265E-02;7.25670E-10
7.09081E-02;7.69850E-10
7.50897E-02;8.14020E-10
7.92714E-02;8.58200E-10
8.34530E-02;9.02370E-10
9.17265E-02;9.89780E-10
1.00000E-01;1.07719E-09
1.06250E-01;1.14322E-09
1.12500E-01;1.20925E-09
1.18750E-01;1.27528E-09
1.25000E-01;1.34131E-09
1.37500E-01;1.47337E-09
1.50000E-01;1.60543E-09
1.62500E-01;1.73749E-09
1.75000E-01;1.86955E-09
1.87500E-01;2.00161E-09
2.00000E-01;2.13367E-09
2.13705E-01;2.27846E-09
2.27409E-01;2.42325E-09
2.41114E-01;2.56804E-09
2.54818E-01;2.71282E-09
2.82228E-01;3.00240E-09
2.95932E-01;3.14719E-09
3.09637E-01;3.29198E-09
3.37046E-01;3.58155E-09
3.64455E-01;3.87113E-09
3.91864E-01;4.16071E-09
4.19273E-01;4.45028E-09
5.00000E-01;5.30316E-09
5.62500E-01;5.96347E-09
6.25000E-01;6.62378E-09
7.50000E-01;7.94441E-09
8.75000E-01;9.26503E-09
1.00000E+00;1.05857E-08
1.25000E+00;1.32269E-08
1.37500E+00;1.45475E-08
1.50000E+00;1.58682E-08
1.75000E+00;1.85094E-08
2.00000E+00;2.11507E-08
2.38769E+00;2.52466E-08
2.91577E+00;3.08257E-08
3.17980E+00;3.36153E-08
3.44384E+00;3.64049E-08
3.97192E+00;4.19840E-08
4.50000E+00;4.75632E-08
5.00000E+00;5.28457E-08
5.17727E+00;5.47185E-08
5.78011E+00;6.10876E-08
6.38295E+00;6.74566E-08
7.58864E+00;8.01946E-08
8.79432E+00;9.29326E-08
1.00000E+01;1.05671E-07
1.12500E+01;1.18877E-07
1.25000E+01;1.32083E-07
1.50000E+01;1.58496E-07
1.75000E+01;1.84908E-07
1.87500E+01;1.98114E-07
2.00000E+01;2.11321E-07
2.25973E+01;2.38761E-07
2.51946E+01;2.66202E-07
2.77919E+01;2.93642E-07
3.03892E+01;3.21083E-07
3.55838E+01;3.75964E-07
4.07784E+01;4.30845E-07
4.53892E+01;4.79558E-07
5.00000E+01;5.28271E-07
5.31250E+01;5.61286E-07
5.62500E+01;5.94302E-07
6.25000E+01;6.60333E-07
6.87500E+01;7.26364E-07
7.50000E+01;7.92396E-07
8.75000E+01;9.24458E-07
1.00000E+02;1.05652E-06
1.12500E+02;1.18858E-06
1.25000E+02;1.32065E-06
1.31250E+02;1.38668E-06
1.37500E+02;1.45271E-06
1.50000E+02;1.58477E-06
1.62500E+02;1.71683E-06
1.75000E+02;1.84890E-06
1.87500E+02;1.98096E-06
2.00000E+02;2.11302E-06
2.25000E+02;2.37715E-06
2.50000E+02;2.64127E-06
2.75000E+02;2.90540E-06
3.00000E+02;3.16952E-06
3.25000E+02;3.43365E-06
3.50000E+02;3.69777E-06
3.75000E+02;3.96190E-06
4.00000E+02;4.22602E-06
4.50000E+02;4.75427E-06
5.00000E+02;5.28252E-06
5.50000E+02;5.81077E-06
6.00000E+02;6.33902E-06
6.40514E+02;6.76705E-06
6.81028E+02;7.19508E-06
7.62055E+02;8.05113E-06
8.43083E+02;8.90719E-06
8.83596E+02;9.33522E-06
9.24110E+02;9.76324E-06
9.43083E+02;9.96369E-06
9.62055E+02;1.01641E-05
9.81028E+02;1.03646E-05
1.00000E+03;1.05650E-05
1.01218E+03;1.06938E-05
1.01828E+03;1.07581E-05
1.02437E+03;1.08225E-05
1.03046E+03;1.08868E-05
1.03655E+03;1.09512E-05
1.04264E+03;1.10155E-05
1.04873E+03;1.10799E-05
1.05178E+03;1.11121E-05
1.05483E+03;1.11443E-05
1.05787E+03;1.11764E-05
1.06092E+03;1.12086E-05
1.06396E+03;1.12408E-05
1.06701E+03;1.12730E-05
1.07006E+03;1.13052E-05
1.07310E+03;1.13373E-05
1.07539E+03;1.13615E-05
1.07767E+03;1.13856E-05
1.07996E+03;1.14098E-05
1.08224E+03;1.14339E-05
1.08452E+03;1.14580E-05
1.08567E+03;1.14701E-05
1.08681E+03;1.14822E-05
1.08795E+03;1.14942E-05
1.08909E+03;1.15063E-05
1.09024E+03;1.15184E-05
1.09138E+03;1.15304E-05
1.09257E+03;1.15431E-05
1.09377E+03;1.15557E-05
1.09497E+03;1.15684E-05
1.09616E+03;1.15810E-05
1.09736E+03;1.15936E-05
1.09796E+03;1.16000E-05
1.09856E+03;1.16063E-05
1.09916E+03;1.16126E-05
1.09975E+03;1.16189E-05
1.10035E+03;1.16252E-05
1.10095E+03;1.16316E-05
1.10155E+03;1.16379E-05
1.10215E+03;1.16442E-05
1.10275E+03;1.16505E-05
1.10334E+03;1.16568E-05
1.10364E+03;1.16600E-05
1.10394E+03;1.16632E-05
1.10424E+03;1.16663E-05
1.10454E+03;1.16695E-05
1.10484E+03;1.16726E-05
1.10514E+03;1.16758E-05
1.10544E+03;1.16790E-05
1.10574E+03;1.16821E-05
1.10606E+03;1.16856E-05
1.10623E+03;1.16873E-05
1.10639E+03;1.16890E-05
1.10655E+03;1.16907E-05
1.10672E+03;1.16925E-05
1.10688E+03;1.16942E-05
1.10704E+03;1.16959E-05
1.10721E+03;1.16976E-05
1.10737E+03;1.16994E-05
1.10753E+03;1.17011E-05
1.10769E+03;1.17028E-05
1.10786E+03;1.17045E-05
1.10794E+03;1.17054E-05
1.10802E+03;1.17063E-05
1.10810E+03;1.17071E-05
1.10818E+03;1.17080E-05
1.10827E+03;1.17088E-05
1.10835E+03;1.17097E-05
1.10844E+03;1.17107E-05
1.10854E+03;1.17117E-05
1.10863E+03;1.17127E-05
1.10873E+03;1.17137E-05
1.10882E+03;1.17147E-05
1.10892E+03;1.17157E-05
1.10901E+03;1.17167E-05
1.10911E+03;1.17178E-05
1.10920E+03;1.17188E-05
1.10930E+03;1.17198E-05
1.10949E+03;1.17218E-05
1.10968E+03;1.17238E-05
1.10987E+03;1.17258E-05
1.11009E+03;1.17281E-05
1.11030E+03;1.17304E-05
1.11074E+03;1.17350E-05
1.11100E+03;1.17377E-05
1.11126E+03;1.17404E-05
1.11144E+03;1.17424E-05
1.11162E+03;1.17443E-05
1.11166E+03;1.17447E-05
1.11175E+03;1.17456E-05
1.11184E+03;1.17466E-05
1.11203E+03;1.17486E-05
1.11227E+03;1.17511E-05
1.11251E+03;1.17537E-05
1.11331E+03;1.17622E-05
1.11353E+03;1.17644E-05
1.11374E+03;1.17667E-05
1.11385E+03;1.17678E-05
1.11395E+03;1.17689E-05
1.11406E+03;1.17701E-05
1.11417E+03;1.17712E-05
1.11428E+03;1.17723E-05
1.11444E+03;1.17740E-05
1.11460E+03;1.17757E-05
1.11468E+03;1.17766E-05
1.11476E+03;1.17774E-05
1.11484E+03;1.17783E-05
1.11492E+03;1.17791E-05
1.11500E+03;1.17800E-05
1.11508E+03;1.17808E-05
1.11516E+03;1.17817E-05
1.11524E+03;1.17825E-05
1.11532E+03;1.17834E-05
1.11540E+03;1.17842E-05
1.11556E+03;1.17859E-05
1.11572E+03;1.17876E-05
1.11588E+03;1.17893E-05
1.11604E+03;1.17910E-05
1.11620E+03;1.17927E-05
1.11636E+03;1.17944E-05
1.11652E+03;1.17961E-05
1.11668E+03;1.17978E-05
1.11684E+03;1.17995E-05
1.11701E+03;1.18012E-05
1.11717E+03;1.18029E-05
1.11749E+03;1.18063E-05
1.11778E+03;1.18094E-05
1.11808E+03;1.18125E-05
1.11837E+03;1.18156E-05
1.11866E+03;1.18187E-05
1.11896E+03;1.18218E-05
1.11925E+03;1.18249E-05
1.11955E+03;1.18280E-05
1.11984E+03;1.18311E-05
1.12043E+03;1.18374E-05
1.12102E+03;1.18436E-05
1.12161E+03;1.18498E-05
1.12220E+03;1.18560E-05
1.12278E+03;1.18622E-05
1.12337E+03;1.18685E-05
1.12396E+03;1.18747E-05
1.12455E+03;1.18809E-05
1.12514E+03;1.18871E-05
1.12573E+03;1.18933E-05
1.12691E+03;1.19058E-05
1.12808E+03;1.19182E-05
1.12926E+03;1.19307E-05
1.13044E+03;1.19431E-05
1.13161E+03;1.19555E-05
1.13274E+03;1.19674E-05
1.13386E+03;1.19793E-05
1.13499E+03;1.19912E-05
1.13611E+03;1.20030E-05
1.13723E+03;1.20149E-05
1.13836E+03;1.20268E-05
1.14061E+03;1.20505E-05
1.14285E+03;1.20743E-05
1.14510E+03;1.20980E-05
1.14735E+03;1.21218E-05
1.14960E+03;1.21455E-05
1.15268E+03;1.21781E-05
1.15576E+03;1.22106E-05
1.15884E+03;1.22432E-05
1.16193E+03;1.22758E-05
1.16501E+03;1.23083E-05
1.16809E+03;1.23409E-05
1.17117E+03;1.23735E-05
1.17425E+03;1.24060E-05
1.18042E+03;1.24712E-05
1.18658E+03;1.25363E-05
1.19275E+03;1.26014E-05
1.19891E+03;1.26665E-05
1.20864E+03;1.27693E-05
1.21836E+03;1.28720E-05
1.22809E+03;1.29748E-05
1.23781E+03;1.30775E-05
1.25726E+03;1.32830E-05
1.27671E+03;1.34885E-05
1.29616E+03;1.36940E-05
1.31561E+03;1.38995E-05
1.33506E+03;1.41049E-05
1.35451E+03;1.43104E-05
1.39341E+03;1.47214E-05
1.43231E+03;1.51324E-05
1.51011E+03;1.59543E-05
1.63258E+03;1.72482E-05
1.75505E+03;1.85422E-05
1.87753E+03;1.98361E-05
2.00000E+03;2.11300E-05
2.32368E+03;2.45497E-05
2.48553E+03;2.62596E-05
2.64737E+03;2.79694E-05
2.73553E+03;2.89008E-05
2.82368E+03;2.98322E-05
2.86776E+03;3.02979E-05
2.91184E+03;3.07636E-05
2.95592E+03;3.12293E-05
3.00000E+03;3.16950E-05
3.02616E+03;3.19714E-05
3.05231E+03;3.22477E-05
3.06539E+03;3.23859E-05
3.07847E+03;3.25241E-05
3.09155E+03;3.26622E-05
3.10463E+03;3.28004E-05
3.11552E+03;3.29155E-05
3.12642E+03;3.30307E-05
3.13732E+03;3.31458E-05
3.14822E+03;3.32610E-05
3.15912E+03;3.33761E-05
3.16457E+03;3.34337E-05
3.17002E+03;3.34912E-05
3.17547E+03;3.35488E-05
3.18092E+03;3.36064E-05
3.18636E+03;3.36640E-05
3.19181E+03;3.37215E-05
3.19699E+03;3.37762E-05
3.20217E+03;3.38309E-05
3.20734E+03;3.38856E-05
3.21252E+03;3.39403E-05
3.21770E+03;3.39950E-05
3.22029E+03;3.40224E-05
3.22288E+03;3.40497E-05
3.22546E+03;3.40771E-05
3.22805E+03;3.41044E-05
3.23064E+03;3.41317E-05
3.23323E+03;3.41591E-05
3.23568E+03;3.41850E-05
3.23813E+03;3.42109E-05
3.24058E+03;3.42368E-05
3.24304E+03;3.42627E-05
3.24549E+03;3.42886E-05
3.24794E+03;3.43145E-05
3.25039E+03;3.43404E-05
3.25162E+03;3.43534E-05
3.25284E+03;3.43663E-05
3.25434E+03;3.43822E-05
3.25584E+03;3.43980E-05
3.25734E+03;3.44138E-05
3.25884E+03;3.44296E-05
3.26034E+03;3.44455E-05
3.26109E+03;3.44534E-05
3.26184E+03;3.44613E-05
3.26259E+03;3.44692E-05
3.26333E+03;3.44771E-05
3.26408E+03;3.44851E-05
3.26483E+03;3.44930E-05
3.26565E+03;3.45016E-05
3.26647E+03;3.45102E-05
3.26729E+03;3.45189E-05
3.26810E+03;3.45275E-05
3.26851E+03;3.45318E-05
3.26892E+03;3.45362E-05
3.26933E+03;3.45405E-05
3.26974E+03;3.45448E-05
3.27015E+03;3.45491E-05
3.27055E+03;3.45534E-05
3.27096E+03;3.45577E-05
3.27137E+03;3.45621E-05
3.27161E+03;3.45646E-05
3.27185E+03;3.45671E-05
3.27209E+03;3.45696E-05
3.27233E+03;3.45721E-05
3.27256E+03;3.45747E-05
3.27280E+03;3.45772E-05
3.27304E+03;3.45797E-05
3.27328E+03;3.45822E-05
3.27352E+03;3.45847E-05
3.27376E+03;3.45872E-05
3.27399E+03;3.45898E-05
3.27423E+03;3.45923E-05
3.27447E+03;3.45948E-05
3.27471E+03;3.45973E-05
3.27495E+03;3.45998E-05
3.27519E+03;3.46024E-05
3.27544E+03;3.46051E-05
3.27570E+03;3.46078E-05
3.27595E+03;3.46105E-05
3.27621E+03;3.46132E-05
3.27672E+03;3.46186E-05
3.27723E+03;3.46240E-05
3.27777E+03;3.46297E-05
3.27832E+03;3.46355E-05
3.27869E+03;3.46394E-05
3.27905E+03;3.46432E-05
3.27943E+03;3.46472E-05
3.27977E+03;3.46508E-05
3.28010E+03;3.46543E-05
3.28045E+03;3.46580E-05
3.28081E+03;3.46617E-05
3.28145E+03;3.46685E-05
3.28209E+03;3.46753E-05
3.28240E+03;3.46786E-05
3.28271E+03;3.46818E-05
3.28301E+03;3.46851E-05
3.28332E+03;3.46883E-05
3.28363E+03;3.46916E-05
3.28378E+03;3.46932E-05
3.28394E+03;3.46948E-05
3.28409E+03;3.46964E-05
3.28424E+03;3.46980E-05
3.28440E+03;3.46997E-05
3.28455E+03;3.47013E-05
3.28470E+03;3.47028E-05
3.28484E+03;3.47044E-05
3.28499E+03;3.47059E-05
3.28513E+03;3.47075E-05
3.28528E+03;3.47090E-05
3.28543E+03;3.47106E-05
3.28557E+03;3.47121E-05
3.28572E+03;3.47136E-05
3.28587E+03;3.47152E-05
3.28601E+03;3.47167E-05
3.28616E+03;3.47183E-05
3.28630E+03;3.47198E-05
3.28660E+03;3.47229E-05
3.28689E+03;3.47260E-05
3.28718E+03;3.47291E-05
3.28747E+03;3.47322E-05
3.28777E+03;3.47353E-05
3.28806E+03;3.47384E-05
3.28835E+03;3.47415E-05
3.28864E+03;3.47445E-05
3.28894E+03;3.47476E-05
3.28923E+03;3.47507E-05
3.28976E+03;3.47563E-05
3.29028E+03;3.47618E-05
3.29081E+03;3.47674E-05
3.29133E+03;3.47730E-05
3.29186E+03;3.47785E-05
3.29239E+03;3.47841E-05
3.29291E+03;3.47897E-05
3.29344E+03;3.47952E-05
3.29449E+03;3.48063E-05
3.29555E+03;3.48175E-05
3.29660E+03;3.48286E-05
3.29765E+03;3.48397E-05
3.29859E+03;3.48496E-05
3.29952E+03;3.48595E-05
3.30046E+03;3.48694E-05
3.30139E+03;3.48792E-05
3.30233E+03;3.48891E-05
3.30420E+03;3.49089E-05
3.30549E+03;3.49225E-05
3.30677E+03;3.49361E-05
3.30806E+03;3.49497E-05
3.30935E+03;3.49633E-05
3.31063E+03;3.49769E-05
3.31192E+03;3.49905E-05
3.31449E+03;3.50177E-05
3.31707E+03;3.50448E-05
3.31964E+03;3.50720E-05
3.32221E+03;3.50992E-05
3.32479E+03;3.51264E-05
3.32760E+03;3.51561E-05
3.33040E+03;3.51857E-05
3.33321E+03;3.52154E-05
3.33602E+03;3.52450E-05
3.33883E+03;3.52747E-05
3.34163E+03;3.53044E-05
3.34444E+03;3.53340E-05
3.34725E+03;3.53637E-05
3.35286E+03;3.54230E-05
3.35848E+03;3.54823E-05
3.36409E+03;3.55416E-05
3.36970E+03;3.56009E-05
3.37719E+03;3.56800E-05
3.38468E+03;3.57591E-05
3.39216E+03;3.58382E-05
3.39965E+03;3.59173E-05
3.40714E+03;3.59964E-05
3.41462E+03;3.60755E-05
3.42211E+03;3.61546E-05
3.42959E+03;3.62337E-05
3.44644E+03;3.64117E-05
3.46328E+03;3.65896E-05
3.48013E+03;3.67676E-05
3.49697E+03;3.69455E-05
3.51382E+03;3.71235E-05
3.53066E+03;3.73014E-05
3.54750E+03;3.74794E-05
3.56435E+03;3.76574E-05
3.58119E+03;3.78353E-05
3.59804E+03;3.80133E-05
3.63172E+03;3.83692E-05
3.69910E+03;3.90810E-05
3.78041E+03;3.99400E-05
3.86171E+03;4.07990E-05
4.02433E+03;4.25170E-05
4.18694E+03;4.42350E-05
4.22759E+03;4.46645E-05
4.23776E+03;4.47719E-05
4.24792E+03;4.48793E-05
4.26824E+03;4.50940E-05
4.34955E+03;4.59530E-05
4.67478E+03;4.93890E-05
5.00000E+03;5.28250E-05
5.50000E+03;5.81075E-05
5.75000E+03;6.07488E-05
6.00000E+03;6.33900E-05
6.24350E+03;6.59626E-05
6.48699E+03;6.85351E-05
6.73048E+03;7.11076E-05
6.97398E+03;7.36801E-05
7.09573E+03;7.49664E-05
7.21747E+03;7.62526E-05
7.33922E+03;7.75389E-05
7.46097E+03;7.88251E-05
7.58271E+03;8.01114E-05
7.70446E+03;8.13976E-05
7.82621E+03;8.26839E-05
7.94795E+03;8.39702E-05
8.03629E+03;8.49034E-05
8.12462E+03;8.58367E-05
8.21296E+03;8.67699E-05
8.30129E+03;8.77032E-05
8.38963E+03;8.86364E-05
8.43379E+03;8.91030E-05
8.47796E+03;8.95697E-05
8.52213E+03;9.00363E-05
8.56629E+03;9.05029E-05
8.61046E+03;9.09695E-05
8.65463E+03;9.14362E-05
8.68996E+03;9.18095E-05
8.72530E+03;9.21828E-05
8.76063E+03;9.25561E-05
8.79596E+03;9.29294E-05
8.83130E+03;9.33027E-05
8.86663E+03;9.36760E-05
8.90196E+03;9.40493E-05
8.91963E+03;9.42359E-05
8.93730E+03;9.44226E-05
8.95386E+03;9.45976E-05
8.97042E+03;9.47725E-05
8.98699E+03;9.49475E-05
9.00355E+03;9.51225E-05
9.01183E+03;9.52100E-05
9.02011E+03;9.52975E-05
9.03667E+03;9.54725E-05
9.04496E+03;9.55600E-05
9.05324E+03;9.56475E-05
9.06152E+03;9.57350E-05
9.06980E+03;9.58224E-05
9.08194E+03;9.59508E-05
9.09409E+03;9.60791E-05
9.10624E+03;9.62074E-05
9.11838E+03;9.63357E-05
9.13053E+03;9.64641E-05
9.14267E+03;9.65924E-05
9.15482E+03;9.67207E-05
9.16697E+03;9.68490E-05
9.17856E+03;9.69715E-05
9.18436E+03;9.70328E-05
9.19015E+03;9.70940E-05
9.19595E+03;9.71552E-05
9.20175E+03;9.72165E-05
9.20755E+03;9.72777E-05
9.21334E+03;9.73390E-05
9.21914E+03;9.74002E-05
9.22494E+03;9.74615E-05
9.23073E+03;9.75227E-05
9.23653E+03;9.75840E-05
9.24233E+03;9.76452E-05
9.24812E+03;9.77065E-05
9.25392E+03;9.77677E-05
9.25972E+03;9.78289E-05
9.26579E+03;9.78931E-05
9.27186E+03;9.79573E-05
9.27794E+03;9.80214E-05
9.28401E+03;9.80856E-05
9.29008E+03;9.81497E-05
9.29616E+03;9.82139E-05
9.30223E+03;9.82781E-05
9.30830E+03;9.83422E-05
9.31437E+03;9.84064E-05
9.31741E+03;9.84385E-05
9.32045E+03;9.84705E-05
9.32348E+03;9.85026E-05
9.32652E+03;9.85347E-05
9.32956E+03;9.85668E-05
9.33259E+03;9.85989E-05
9.33563E+03;9.86309E-05
9.33867E+03;9.86630E-05
9.34170E+03;9.86951E-05
9.34474E+03;9.87272E-05
9.34778E+03;9.87593E-05
9.35081E+03;9.87913E-05
9.35385E+03;9.88234E-05
9.35688E+03;9.88555E-05
9.36083E+03;9.88972E-05
9.36477E+03;9.89389E-05
9.36872E+03;9.89805E-05
9.37266E+03;9.90222E-05
9.37661E+03;9.90639E-05
9.38055E+03;9.91055E-05
9.38450E+03;9.91472E-05
9.38844E+03;9.91889E-05
9.39128E+03;9.92189E-05
9.39412E+03;9.92489E-05
9.39695E+03;9.92788E-05
9.39979E+03;9.93088E-05
9.41114E+03;9.94287E-05
9.41682E+03;9.94887E-05
9.41966E+03;9.95187E-05
9.42249E+03;9.95487E-05
9.42533E+03;9.95786E-05
9.42817E+03;9.96086E-05
9.43101E+03;9.96386E-05
9.43384E+03;9.96686E-05
9.43698E+03;9.97017E-05
9.44012E+03;9.97349E-05
9.44326E+03;9.97681E-05
9.44640E+03;9.98012E-05
9.44954E+03;9.98344E-05
9.45268E+03;9.98676E-05
9.45896E+03;9.99339E-05
9.46523E+03;1.00000E-04
9.47151E+03;1.00067E-04
9.47779E+03;1.00133E-04
9.48407E+03;1.00199E-04
9.49006E+03;1.00263E-04
9.49605E+03;1.00326E-04
9.50205E+03;1.00389E-04
9.50804E+03;1.00453E-04
9.51403E+03;1.00516E-04
9.52002E+03;1.00579E-04
9.52602E+03;1.00642E-04
9.53201E+03;1.00706E-04
9.54399E+03;1.00832E-04
9.55598E+03;1.00959E-04
9.56796E+03;1.01086E-04
9.57995E+03;1.01212E-04
9.59022E+03;1.01321E-04
9.60050E+03;1.01429E-04
9.61077E+03;1.01538E-04
9.62104E+03;1.01646E-04
9.63131E+03;1.01755E-04
9.64159E+03;1.01863E-04
9.65186E+03;1.01972E-04
9.66213E+03;1.02081E-04
9.68268E+03;1.02298E-04
9.70323E+03;1.02515E-04
9.72377E+03;1.02732E-04
9.74432E+03;1.02949E-04
9.76030E+03;1.03118E-04
9.77628E+03;1.03286E-04
9.80824E+03;1.03624E-04
9.84020E+03;1.03962E-04
9.85618E+03;1.04131E-04
9.87216E+03;1.04299E-04
9.88814E+03;1.04468E-04
9.90412E+03;1.04637E-04
9.93608E+03;1.04975E-04
9.96804E+03;1.05312E-04
1.00000E+04;1.05650E-04
1.00383E+04;1.06054E-04
1.00765E+04;1.06458E-04
1.01147E+04;1.06862E-04
1.01530E+04;1.07266E-04
1.01912E+04;1.07670E-04
1.02295E+04;1.08074E-04
1.02677E+04;1.08478E-04
1.02868E+04;1.08680E-04
1.03060E+04;1.08882E-04
1.03169E+04;1.08998E-04
1.03223E+04;1.09056E-04
1.03251E+04;1.09084E-04
1.03278E+04;1.09113E-04
1.03305E+04;1.09142E-04
1.03319E+04;1.09157E-04
1.03333E+04;1.09171E-04
